        BP2000 Sound Speeds 

       R/R_sun    Sound speed
                     (km/s)

     6.50453E-03    505.491
     6.60515E-03    505.495
     6.70734E-03    505.499
     6.81112E-03    505.503
     6.91652E-03    505.507
     7.02356E-03    505.511
     7.13227E-03    505.515
     7.24267E-03    505.520
     7.35479E-03    505.525
     7.46865E-03    505.530
     7.58429E-03    505.535
     7.70173E-03    505.540
     7.82101E-03    505.545
     7.94214E-03    505.550
     8.06515E-03    505.556
     8.19009E-03    505.562
     8.31697E-03    505.568
     8.44583E-03    505.574
     8.57671E-03    505.580
     8.70962E-03    505.587
     8.84460E-03    505.594
     8.98169E-03    505.601
     9.12092E-03    505.608
     9.26232E-03    505.615
     9.40593E-03    505.623
     9.55179E-03    505.631
     9.69992E-03    505.639
     9.85036E-03    505.647
     1.00032E-02    505.656
     1.01583E-02    505.664
     1.03159E-02    505.674
     1.04760E-02    505.683
     1.06386E-02    505.693
     1.08037E-02    505.703
     1.09714E-02    505.713
     1.11417E-02    505.723
     1.13147E-02    505.734
     1.14904E-02    505.746
     1.16689E-02    505.757
     1.18502E-02    505.769
     1.20343E-02    505.781
     1.22212E-02    505.794
     1.24112E-02    505.807
     1.26041E-02    505.820
     1.28000E-02    505.834
     1.29990E-02    505.848
     1.32012E-02    505.863
     1.34065E-02    505.878
     1.36150E-02    505.893
     1.38268E-02    505.909
     1.40420E-02    505.926
     1.42606E-02    505.943
     1.44826E-02    505.960
     1.47081E-02    505.978
     1.49372E-02    505.996
     1.51699E-02    506.015
     1.54062E-02    506.035
     1.56463E-02    506.055
     1.58902E-02    506.076
     1.61380E-02    506.097
     1.63897E-02    506.119
     1.66454E-02    506.141
     1.69052E-02    506.165
     1.71690E-02    506.188
     1.74371E-02    506.213
     1.77094E-02    506.238
     1.79861E-02    506.264
     1.82672E-02    506.290
     1.85528E-02    506.318
     1.88429E-02    506.346
     1.91377E-02    506.375
     1.94371E-02    506.405
     1.97414E-02    506.435
     2.00505E-02    506.467
     2.03647E-02    506.499
     2.06838E-02    506.532
     2.10081E-02    506.566
     2.13376E-02    506.601
     2.16725E-02    506.637
     2.20127E-02    506.673
     2.23584E-02    506.711
     2.27097E-02    506.750
     2.30667E-02    506.790
     2.34296E-02    506.831
     2.37983E-02    506.872
     2.41730E-02    506.915
     2.45538E-02    506.959
     2.49408E-02    507.005
     2.53341E-02    507.051
     2.57339E-02    507.098
     2.61403E-02    507.147
     2.65533E-02    507.197
     2.69731E-02    507.248
     2.73999E-02    507.300
     2.78337E-02    507.353
     2.82746E-02    507.408
     2.87229E-02    507.464
     2.91787E-02    507.521
     2.96420E-02    507.579
     3.01130E-02    507.639
     3.05920E-02    507.700
     3.10789E-02    507.762
     3.15741E-02    507.826
     3.20775E-02    507.891
     3.25895E-02    507.957
     3.31101E-02    508.025
     3.36396E-02    508.094
     3.41780E-02    508.164
     3.47257E-02    508.235
     3.52827E-02    508.308
     3.58493E-02    508.382
     3.64256E-02    508.457
     3.70118E-02    508.533
     3.76082E-02    508.611
     3.82150E-02    508.689
     3.88323E-02    508.769
     3.94603E-02    508.850
     4.00994E-02    508.931
     4.07498E-02    509.014
     4.14115E-02    509.098
     4.20851E-02    509.182
     4.27705E-02    509.267
     4.34683E-02    509.353
     4.41785E-02    509.439
     4.49015E-02    509.526
     4.56375E-02    509.613
     4.63869E-02    509.700
     4.71499E-02    509.787
     4.79268E-02    509.874
     4.87180E-02    509.960
     4.95238E-02    510.047
     5.03446E-02    510.132
     5.11806E-02    510.216
     5.20322E-02    510.300
     5.28999E-02    510.382
     5.37839E-02    510.462
     5.46847E-02    510.541
     5.55744E-02    510.615
     5.64479E-02    510.684
     5.73064E-02    510.748
     5.81509E-02    510.808
     5.89823E-02    510.863
     5.98015E-02    510.914
     6.06092E-02    510.960
     6.14060E-02    511.003
     6.21927E-02    511.041
     6.29698E-02    511.076
     6.37378E-02    511.106
     6.44974E-02    511.133
     6.52489E-02    511.156
     6.59928E-02    511.175
     6.67295E-02    511.191
     6.74593E-02    511.203
     6.81827E-02    511.212
     6.89000E-02    511.217
     6.96115E-02    511.219
     7.03175E-02    511.218
     7.10183E-02    511.213
     7.17141E-02    511.205
     7.24052E-02    511.194
     7.30919E-02    511.179
     7.37744E-02    511.161
     7.44529E-02    511.140
     7.51276E-02    511.116
     7.57987E-02    511.089
     7.64664E-02    511.058
     7.71308E-02    511.025
     7.77923E-02    510.988
     7.84509E-02    510.949
     7.91067E-02    510.906
     7.97601E-02    510.860
     8.04110E-02    510.811
     8.10596E-02    510.759
     8.17062E-02    510.704
     8.23508E-02    510.647
     8.29935E-02    510.586
     8.36345E-02    510.522
     8.42739E-02    510.454
     8.49119E-02    510.384
     8.55485E-02    510.311
     8.61839E-02    510.235
     8.68182E-02    510.156
     8.74515E-02    510.073
     8.80838E-02    509.988
     8.87154E-02    509.899
     8.93463E-02    509.807
     8.99766E-02    509.712
     9.06064E-02    509.614
     9.12358E-02    509.513
     9.18650E-02    509.409
     9.24939E-02    509.301
     9.31228E-02    509.191
     9.37516E-02    509.077
     9.43806E-02    508.960
     9.50097E-02    508.839
     9.56391E-02    508.716
     9.62689E-02    508.589
     9.68992E-02    508.459
     9.75300E-02    508.325
     9.81615E-02    508.188
     9.87937E-02    508.048
     9.94268E-02    507.904
     1.00061E-01    507.757
     1.00696E-01    507.606
     1.01332E-01    507.452
     1.01969E-01    507.294
     1.02608E-01    507.132
     1.03248E-01    506.967
     1.03889E-01    506.799
     1.04532E-01    506.626
    0.105177    506.450
    0.105823    506.270
    0.106472    506.086
    0.107122    505.899
    0.107775    505.707
    0.108429    505.512
    0.109086    505.312
    0.109745    505.108
    0.110407    504.900
    0.111071    504.688
    0.111738    504.472
    0.112408    504.251
    0.113081    504.026
    0.113757    503.796
    0.114436    503.562
    0.115118    503.323
    0.115804    503.080
    0.116493    502.832
    0.117186    502.579
    0.117883    502.321
    0.118584    502.058
    0.119288    501.790
    0.119998    501.517
    0.120711    501.238
    0.121429    500.954
    0.122152    500.665
    0.122880    500.370
    0.123613    500.069
    0.124351    499.762
    0.125094    499.449
    0.125843    499.131
    0.126598    498.805
    0.127359    498.474
    0.128126    498.136
    0.128900    497.791
    0.129680    497.440
    0.130468    497.081
    0.131262    496.715
    0.132064    496.341
    0.132873    495.960
    0.133691    495.571
    0.134517    495.174
    0.135351    494.768
    0.136194    494.355
    0.137047    493.932
    0.137909    493.500
    0.138781    493.059
    0.139663    492.609
    0.140556    492.148
    0.141460    491.678
    0.142376    491.197
    0.143304    490.705
    0.144244    490.203
    0.145197    489.688
    0.146163    489.162
    0.147144    488.624
    0.148139    488.073
    0.149150    487.509
    0.150176    486.931
    0.151219    486.339
    0.152280    485.732
    0.153359    485.110
    0.154457    484.471
    0.155575    483.816
    0.156715    483.143
    0.157877    482.452
    0.159062    481.742
    0.160273    481.011
    0.161510    480.259
    0.162775    479.484
    0.164071    478.685
    0.165398    477.861
    0.166759    477.010
    0.168157    476.130
    0.169594    475.220
    0.171073    474.277
    0.172597    473.299
    0.174170    472.283
    0.175796    471.227
    0.177479    470.127
    0.179224    468.980
    0.181038    467.781
    0.182895    466.547
    0.184744    465.312
    0.186586    464.077
    0.188420    462.841
    0.190248    461.605
    0.192068    460.370
    0.193881    459.136
    0.195688    457.904
    0.197489    456.673
    0.199283    455.444
    0.201071    454.218
    0.202853    452.994
    0.204630    451.773
    0.206400    450.555
    0.208165    449.340
    0.209925    448.129
    0.211680    446.922
    0.213429    445.718
    0.215174    444.518
    0.216914    443.322
    0.218649    442.129
    0.220380    440.941
    0.222106    439.758
    0.223828    438.579
    0.225546    437.404
    0.227259    436.235
    0.228969    435.069
    0.230675    433.909
    0.232378    432.754
    0.234076    431.603
    0.235772    430.458
    0.237463    429.317
    0.239152    428.182
    0.240838    427.052
    0.242520    425.927
    0.244199    424.806
    0.245876    423.692
    0.247550    422.582
    0.249221    421.477
    0.250890    420.378
    0.252556    419.283
    0.254220    418.194
    0.255881    417.109
    0.257541    416.029
    0.259198    414.954
    0.260853    413.885
    0.262506    412.820
    0.264157    411.760
    0.265807    410.705
    0.267454    409.655
    0.269100    408.609
    0.270745    407.569
    0.272388    406.533
    0.274029    405.503
    0.275670    404.478
    0.277309    403.458
    0.278946    402.444
    0.280583    401.435
    0.282218    400.432
    0.283853    399.433
    0.285487    398.441
    0.287119    397.453
    0.288752    396.471
    0.290383    395.494
    0.292013    394.522
    0.293644    393.555
    0.295273    392.593
    0.296902    391.636
    0.298531    390.684
    0.300159    389.736
    0.301787    388.793
    0.303415    387.855
    0.305043    386.921
    0.306671    385.991
    0.308298    385.065
    0.309926    384.144
    0.311554    383.227
    0.313181    382.314
    0.314809    381.405
    0.316437    380.500
    0.318066    379.599
    0.319694    378.702
    0.321324    377.808
    0.322953    376.918
    0.324583    376.032
    0.326213    375.149
    0.327844    374.269
    0.329475    373.393
    0.331107    372.521
    0.332740    371.652
    0.334373    370.786
    0.336007    369.923
    0.337642    369.064
    0.339278    368.209
    0.340914    367.356
    0.342551    366.507
    0.344189    365.660
    0.345829    364.818
    0.347469    363.978
    0.349110    363.141
    0.350752    362.308
    0.352395    361.477
    0.354040    360.650
    0.355686    359.826
    0.357332    359.005
    0.358980    358.186
    0.360630    357.371
    0.362280    356.559
    0.363932    355.749
    0.365586    354.943
    0.367240    354.139
    0.368897    353.338
    0.370554    352.540
    0.372213    351.744
    0.373874    350.951
    0.375536    350.161
    0.377200    349.372
    0.378865    348.587
    0.380532    347.804
    0.382201    347.024
    0.383871    346.246
    0.385543    345.471
    0.387216    344.698
    0.388892    343.927
    0.390569    343.160
    0.392248    342.394
    0.393929    341.631
    0.395611    340.871
    0.397296    340.113
    0.398982    339.357
    0.400670    338.604
    0.402361    337.853
    0.404053    337.104
    0.405747    336.358
    0.407443    335.614
    0.409141    334.872
    0.410842    334.133
    0.412544    333.395
    0.414248    332.660
    0.415955    331.927
    0.417663    331.197
    0.419374    330.468
    0.421087    329.742
    0.422802    329.018
    0.424519    328.295
    0.426239    327.575
    0.427960    326.856
    0.429684    326.139
    0.431411    325.424
    0.433139    324.711
    0.434870    324.000
    0.436603    323.290
    0.438338    322.582
    0.440076    321.876
    0.441816    321.172
    0.443559    320.470
    0.445303    319.769
    0.447051    319.070
    0.448800    318.372
    0.450552    317.676
    0.452307    316.982
    0.454064    316.290
    0.455823    315.599
    0.457585    314.910
    0.459349    314.222
    0.461116    313.536
    0.462885    312.852
    0.464657    312.169
    0.466431    311.487
    0.468208    310.807
    0.469987    310.129
    0.471769    309.452
    0.473554    308.776
    0.475341    308.102
    0.477130    307.429
    0.478922    306.757
    0.480717    306.087
    0.482514    305.417
    0.484314    304.749
    0.486117    304.083
    0.487922    303.417
    0.489729    302.753
    0.491539    302.089
    0.493352    301.427
    0.495168    300.766
    0.496986    300.106
    0.498806    299.448
    0.500629    298.790
    0.502455    298.134
    0.504283    297.478
    0.506114    296.824
    0.507948    296.171
    0.509784    295.519
    0.511623    294.867
    0.513464    294.217
    0.515308    293.568
    0.517155    292.920
    0.519004    292.272
    0.520856    291.626
    0.522710    290.980
    0.524567    290.335
    0.526427    289.691
    0.528289    289.048
    0.530154    288.405
    0.532021    287.763
    0.533891    287.122
    0.535763    286.481
    0.537638    285.841
    0.539515    285.201
    0.541395    284.562
    0.543277    283.923
    0.545162    283.285
    0.547049    282.647
    0.548939    282.009
    0.550831    281.372
    0.552726    280.736
    0.554623    280.099
    0.556522    279.463
    0.558424    278.827
    0.560328    278.192
    0.562234    277.556
    0.564142    276.921
    0.566053    276.286
    0.567967    275.651
    0.569882    275.016
    0.571800    274.381
    0.573719    273.746
    0.575641    273.111
    0.577565    272.475
    0.579492    271.839
    0.581420    271.203
    0.583350    270.567
    0.585282    269.930
    0.587217    269.293
    0.589153    268.655
    0.591091    268.017
    0.593031    267.378
    0.594972    266.738
    0.596916    266.097
    0.598861    265.455
    0.600808    264.813
    0.602756    264.169
    0.604707    263.524
    0.606658    262.878
    0.608611    262.231
    0.610566    261.583
    0.612522    260.934
    0.614479    260.284
    0.616437    259.632
    0.618397    258.979
    0.620358    258.324
    0.622320    257.669
    0.624283    257.011
    0.626247    256.353
    0.628211    255.693
    0.630177    255.031
    0.632143    254.368
    0.634110    253.703
    0.636078    253.036
    0.638046    252.367
    0.640015    251.697
    0.641984    251.024
    0.643953    250.350
    0.645923    249.673
    0.647892    248.994
    0.649862    248.312
    0.651832    247.629
    0.653801    246.942
    0.655770    246.252
    0.657739    245.560
    0.659708    244.863
    0.661676    244.164
    0.663643    243.460
    0.665609    242.752
    0.667574    242.040
    0.669539    241.324
    0.671502    240.603
    0.673464    239.879
    0.675424    239.151
    0.677383    238.419
    0.679340    237.682
    0.681295    236.941
    0.683248    236.195
    0.685199    235.443
    0.687148    234.685
    0.689094    233.921
    0.691037    233.150
    0.692978    232.371
    0.694639    231.696
    0.695122    231.498
    0.695606    231.300
    0.696088    231.101
    0.696571    230.902
    0.697054    230.702
    0.697536    230.501
    0.698018    230.300
    0.698500    230.098
    0.698981    229.896
    0.699463    229.693
    0.699944    229.489
    0.700425    229.284
    0.700905    229.079
    0.701386    228.873
    0.701866    228.666
    0.702345    228.458
    0.702825    228.250
    0.703304    228.041
    0.703783    227.831
    0.704262    227.620
    0.704740    227.409
    0.705219    227.196
    0.705696    226.983
    0.706174    226.769
    0.706651    226.553
    0.707128    226.337
    0.707605    226.120
    0.708081    225.902
    0.708557    225.683
    0.709032    225.463
    0.709508    225.242
    0.709983    225.020
    0.710457    224.797
    0.710931    224.573
    0.711405    224.347
    0.711879    224.120
    0.712352    223.893
    0.712824    223.663
    0.713297    223.433
    0.713769    223.201
    0.714241    222.945
    0.714712    222.689
    0.715183    222.433
    0.715654    222.177
    0.716124    221.921
    0.716594    221.666
    0.717063    221.411
    0.717531    221.157
    0.717999    220.903
    0.718467    220.649
    0.718934    220.395
    0.719400    220.141
    0.719866    219.888
    0.720331    219.636
    0.720796    219.383
    0.721261    219.131
    0.721725    218.879
    0.722188    218.627
    0.722651    218.376
    0.723113    218.125
    0.723575    217.874
    0.724036    217.623
    0.724497    217.373
    0.724957    217.123
    0.725417    216.873
    0.725876    216.624
    0.726335    216.375
    0.726793    216.126
    0.727251    215.877
    0.727708    215.629
    0.728165    215.381
    0.728621    215.133
    0.729076    214.886
    0.729532    214.639
    0.729986    214.392
    0.730440    214.145
    0.730891    213.900
    0.732700    212.918
    0.734501    211.940
    0.736293    210.967
    0.738076    209.999
    0.739852    209.035
    0.741619    208.076
    0.743377    207.121
    0.745127    206.171
    0.746869    205.225
    0.748602    204.283
    0.750326    203.346
    0.752043    202.413
    0.753750    201.485
    0.755450    200.560
    0.757141    199.640
    0.758823    198.725
    0.760497    197.813
    0.762162    196.906
    0.763819    196.003
    0.765467    195.104
    0.767107    194.209
    0.768738    193.318
    0.770361    192.431
    0.771975    191.548
    0.773581    190.670
    0.775178    189.795
    0.776767    188.924
    0.778347    188.058
    0.779919    187.195
    0.781482    186.336
    0.783037    185.481
    0.784583    184.630
    0.786121    183.783
    0.787650    182.941
    0.789171    182.102
    0.790684    181.267
    0.792188    180.436
    0.793683    179.609
    0.795170    178.786
    0.796649    177.966
    0.798119    177.150
    0.799581    176.338
    0.801035    175.530
    0.802480    174.725
    0.803917    173.924
    0.805345    173.126
    0.806766    172.332
    0.808177    171.542
    0.809581    170.755
    0.810976    169.972
    0.812363    169.192
    0.813742    168.416
    0.815113    167.644
    0.816475    166.875
    0.817829    166.110
    0.819175    165.348
    0.820513    164.590
    0.821842    163.835
    0.823164    163.085
    0.824477    162.338
    0.825783    161.595
    0.827080    160.856
    0.828369    160.120
    0.829650    159.388
    0.830923    158.658
    0.832189    157.933
    0.833446    157.210
    0.834695    156.491
    0.835937    155.775
    0.837170    155.062
    0.838396    154.352
    0.839614    153.645
    0.840824    152.941
    0.842026    152.240
    0.843221    151.542
    0.844407    150.847
    0.845586    150.155
    0.846758    149.467
    0.847921    148.782
    0.849078    148.100
    0.850226    147.421
    0.851367    146.746
    0.852500    146.073
    0.853626    145.404
    0.854744    144.738
    0.855855    144.075
    0.856959    143.414
    0.858055    142.757
    0.859143    142.103
    0.860225    141.451
    0.861299    140.802
    0.862366    140.157
    0.863425    139.513
    0.864477    138.873
    0.865522    138.236
    0.866560    137.601
    0.867591    136.969
    0.868614    136.339
    0.869631    135.713
    0.870640    135.089
    0.871642    134.467
    0.872638    133.849
    0.873626    133.234
    0.874607    132.622
    0.875582    132.013
    0.876550    131.407
    0.877510    130.803
    0.878464    130.203
    0.879412    129.606
    0.880352    129.011
    0.881286    128.419
    0.882213    127.830
    0.883134    127.243
    0.884048    126.659
    0.884955    126.078
    0.885856    125.500
    0.886751    124.924
    0.887639    124.350
    0.888520    123.779
    0.889395    123.211
    0.890264    122.645
    0.891126    122.081
    0.891982    121.520
    0.892832    120.962
    0.893676    120.405
    0.894513    119.852
    0.895344    119.300
    0.896170    118.751
    0.896988    118.205
    0.897801    117.660
    0.898608    117.118
    0.899409    116.579
    0.900204    116.042
    0.900993    115.508
    0.901775    114.976
    0.902552    114.448
